This run aims to check if discrepancy is less than 0.0091
each row contains covering data for one orbit at phi, i.e. z = sin(phi), with the range of indices of directions corresponding to this orbit and the expected confidence radius at it. dtheta shows the amount that directions vary horizontally at this orbit.
 fd = first direction, ld = last direction, #d = number of directions 

number,	phi,                	expected radius,    	dtheta,             	covered phi,        	fd,    	ld,    	#d,    	

1,     	1.552484346999,     	0.005575012972,     	0.314597111996,     	1.547833424769,     	0,     	11,    	12,    	
2,     	1.53681714763,      	0.012276107336,     	0.374541139106,     	1.526637992929,     	12,    	21,    	10,    	
3,     	1.51730436324,      	0.010734721453,     	0.209312072287,     	1.50796756273,      	22,    	38,    	17,    	
4,     	1.498673876098,     	0.010524491602,     	0.149170940248,     	1.489581785291,     	39,    	60,    	22,    	
5,     	1.480093598503,     	0.011068027109,     	0.126055365514,     	1.47067389511,      	61,    	87,    	27,    	
6,     	1.461754218352,     	0.010226452696,     	0.104429283277,     	1.452698820917,     	88,    	119,   	32,    	
7,     	1.443518684492,     	0.010720002565,     	0.088789660098,     	1.434347104635,     	120,   	157,   	38,    	
8,     	1.425128035849,     	0.010957143554,     	0.079595884571,     	1.415618791308,     	158,   	198,   	41,    	
9,     	1.406862008395,     	0.010156870268,     	0.063467998046,     	1.397956985518,     	199,   	245,   	47,    	
10,    	1.388870331246,     	0.010571967314,     	0.067059721786,     	1.379590281544,     	246,   	297,   	52,    	
11,    	1.37027054357,      	0.010758781228,     	0.059053721529,     	1.361019352856,     	298,   	355,   	58,    	
12,    	1.352178839607,     	0.010246071316,     	0.047298000443,     	1.343148644597,     	356,   	419,   	64,    	
13,    	1.33406736193,      	0.010440041305,     	0.044519537326,     	1.325082419842,     	420,   	487,   	68,    	
14,    	1.315564381583,     	0.010995465477,     	0.045120979836,     	1.306099860597,     	488,   	559,   	72,    	
15,    	1.296705809712,     	0.01100774246,      	0.042965749642,     	1.287226604659,     	560,   	636,   	77,    	
16,    	1.27835819601,      	0.010226037657,     	0.041756612882,     	1.269472721603,     	637,   	718,   	82,    	
17,    	1.260142464335,     	0.01076978176,      	0.038751859083,     	1.250766850664,     	719,   	803,   	85,    	
18,    	1.241328884631,     	0.010858293612,     	0.036663582865,     	1.231968339704,     	804,   	895,   	92,    	
19,    	1.222413188058,     	0.011025227916,     	0.033930772661,     	1.212906802521,     	896,   	990,   	95,    	
20,    	1.20284783881,      	0.01170020509,      	0.033857531301,     	1.192759440258,     	991,   	1086,  	96,    	
21,    	1.182386598437,     	0.012104681493,     	0.031963693996,     	1.171729841858,     	1087,  	1181,  	95,    	
22,    	1.161020124968,     	0.012320663838,     	0.033968590288,     	1.150142412626,     	1182,  	1276,  	95,    	
23,    	1.139496650565,     	0.012637062867,     	0.030229612007,     	1.128595867907,     	1277,  	1376,  	100,   	
24,    	1.118829146113,     	0.011245414106,     	0.026496976087,     	1.109095804657,     	1377,  	1491,  	115,   	
25,    	1.100115508471,     	0.010351166609,     	0.023661174898,     	1.090998511821,     	1492,  	1614,  	123,   	
26,    	1.082073356597,     	0.010293571638,     	0.021925038243,     	1.073020452817,     	1615,  	1741,  	127,   	
27,    	1.064040022235,     	0.010577017349,     	0.021793267784,     	1.054905164023,     	1742,  	1872,  	131,   	
28,    	1.045765926392,     	0.010558053343,     	0.021064286689,     	1.036646354946,     	1873,  	2009,  	137,   	
29,    	1.027236737525,     	0.010956907265,     	0.02118602597,      	1.017772517757,     	2010,  	2150,  	141,   	
30,    	1.008647179978,     	0.010543376315,     	0.020574647653,     	0.999447211436,     	2151,  	2298,  	148,   	
31,    	0.990246761329,     	0.010625299212,     	0.021785640014,     	0.981066410392,     	2299,  	2452,  	154,   	
32,    	0.972329649402,     	0.010161396239,     	0.020966962468,     	0.963431441242,     	2453,  	2611,  	159,   	
33,    	0.954537816238,     	0.010291518723,     	0.021268142928,     	0.945643714014,     	2612,  	2774,  	163,   	
34,    	0.937133778582,     	0.009841810677,     	0.019074296212,     	0.928460344973,     	2775,  	2942,  	168,   	
35,    	0.919792453186,     	0.010018866861,     	0.016533373829,     	0.910927226945,     	2943,  	3111,  	169,   	
36,    	0.902085391113,     	0.010221739376,     	0.018360716107,     	0.893249557488,     	3112,  	3284,  	173,   	
37,    	0.884472225043,     	0.010119451555,     	0.018230253842,     	0.875724074591,     	3285,  	3461,  	177,   	
38,    	0.867717364153,     	0.009257759996,     	0.0196067769,       	0.859391278304,     	3462,  	3639,  	178,   	
39,    	0.851944752894,     	0.008588645689,     	0.019246919368,     	0.844517259333,     	3640,  	3820,  	181,   	
40,    	0.836743754667,     	0.00896840806,      	0.019256489829,     	0.828819853473,     	3821,  	4003,  	183,   	
41,    	0.820242319869,     	0.009905165497,     	0.018318455233,     	0.81167727508,      	4004,  	4192,  	189,   	
42,    	0.805575633405,     	0.007835037564,     	0.016186644706,     	0.798788095079,     	4193,  	4395,  	203,   	
43,    	0.790383613893,     	0.009703452695,     	0.016280878514,     	0.78199199931,      	4396,  	4602,  	207,   	
44,    	0.776246622865,     	0.006630267703,     	0.018052695368,     	0.770416391794,     	4603,  	4806,  	204,   	
45,    	0.765039809883,     	0.00621628437,      	0.015651468942,     	0.759068407378,     	4807,  	5006,  	200,   	
46,    	0.751642224231,     	0.008566145377,     	0.016303703593,     	0.744232252636,     	5007,  	5216,  	210,   	
47,    	0.736543783611,     	0.008884366805,     	0.015589643968,     	0.728858592535,     	5217,  	5432,  	216,   	
48,    	0.722261748629,     	0.007659177991,     	0.014337347554,     	0.71550248292,      	5433,  	5647,  	215,   	
49,    	0.708070574811,     	0.008575200286,     	0.014037825689,     	0.70041639666,      	5648,  	5857,  	210,   	
50,    	0.693120947316,     	0.008930750641,     	0.015027992803,     	0.685394920053,     	5858,  	6072,  	215,   	
51,    	0.676772603099,     	0.009959385798,     	0.014957963454,     	0.668157411176,     	6073,  	6290,  	218,   	
52,    	0.661817994229,     	0.007335732531,     	0.015179091487,     	0.655165228828,     	6291,  	6519,  	229,   	
53,    	0.646676617056,     	0.009877380611,     	0.015403918624,     	0.638131692396,     	6520,  	6751,  	232,   	
54,    	0.630543398216,     	0.008792229768,     	0.015063269007,     	0.622936108415,     	6752,  	6984,  	233,   	
55,    	0.616489401364,     	0.007441839041,     	0.013602614647,     	0.609643830301,     	6985,  	7211,  	227,   	
56,    	0.602465839933,     	0.008281861962,     	0.014923698811,     	0.595018675063,     	7212,  	7440,  	229,   	
57,    	0.587861139608,     	0.008427912232,     	0.013289766392,     	0.580568227741,     	7441,  	7674,  	234,   	
58,    	0.572181409244,     	0.00967875238,      	0.013239684398,     	0.563806840232,     	7675,  	7912,  	238,   	
59,    	0.55566948982,      	0.009409798006,     	0.013379348792,     	0.547527178136,     	7913,  	8153,  	241,   	
60,    	0.539151259879,     	0.009691373327,     	0.013002711071,     	0.530765242758,     	8154,  	8398,  	245,   	
61,    	0.522931062864,     	0.009053768911,     	0.011532518726,     	0.51477787518,      	8399,  	8644,  	246,   	
62,    	0.506074728948,     	0.010076898345,     	0.013813072117,     	0.49735483999,      	8645,  	8890,  	246,   	
63,    	0.488751566422,     	0.009943244739,     	0.013707463554,     	0.48014696512,      	8891,  	9139,  	249,   	
64,    	0.471729021778,     	0.00975919861,      	0.013306443761,     	0.463283314236,     	9140,  	9387,  	248,   	
65,    	0.455561837589,     	0.008915398642,     	0.013071001085,     	0.447657559491,     	9388,  	9635,  	248,   	
66,    	0.439269740018,     	0.009702425998,     	0.01284399381,      	0.430865614657,     	9636,  	9885,  	250,   	
67,    	0.424014911664,     	0.007947752555,     	0.012780300786,     	0.416476780816,     	9886,  	10141, 	256,   	
68,    	0.409113203913,     	0.009061581809,     	0.012788571907,     	0.401129928888,     	10142, 	10403, 	262,   	
69,    	0.394004686334,     	0.00822430856,      	0.012181106773,     	0.386389320192,     	10404, 	10669, 	266,   	
70,    	0.378474463448,     	0.009138007949,     	0.011179035084,     	0.370230408729,     	10670, 	10937, 	268,   	
71,    	0.363015990167,     	0.00832804163,      	0.012351581528,     	0.355290431157,     	10938, 	11203, 	266,   	
72,    	0.34686377702,      	0.009729784991,     	0.013367339908,     	0.338441747268,     	11204, 	11467, 	264,   	
73,    	0.330580036173,     	0.009102928461,     	0.012780581198,     	0.322402330905,     	11468, 	11735, 	268,   	
74,    	0.313908835106,     	0.009811771845,     	0.012770915801,     	0.305415430085,     	11736, 	12003, 	268,   	
75,    	0.297656353115,     	0.008970972468,     	0.011835021637,     	0.289575265742,     	12004, 	12277, 	274,   	
76,    	0.280432613524,     	0.010557703008,     	0.012682042618,     	0.27129330276,      	12278, 	12549, 	272,   	
77,    	0.263370280299,     	0.009153093688,     	0.013011820827,     	0.255442325431,     	12550, 	12830, 	281,   	
78,    	0.248400798583,     	0.008141789561,     	0.012025300308,     	0.240936801479,     	12831, 	13113, 	283,   	
79,    	0.234133048332,     	0.007855191303,     	0.011527875361,     	0.226962101858,     	13114, 	13400, 	287,   	
80,    	0.218455393429,     	0.00985209314,      	0.010119646477,     	0.209910556159,     	13401, 	13683, 	283,   	
81,    	0.201077483152,     	0.010204070804,     	0.011481820187,     	0.192243074999,     	13684, 	13964, 	281,   	
82,    	0.18477569407,      	0.008627742017,     	0.011865014255,     	0.176963482948,     	13965, 	14245, 	281,   	
83,    	0.169785194711,     	0.008303740448,     	0.012078107086,     	0.162279203996,     	14246, 	14526, 	281,   	
84,    	0.15315340017,      	0.010566735206,     	0.010691935451,     	0.144004408352,     	14527, 	14803, 	277,   	
85,    	0.13664650655,      	0.008522472345,     	0.009420483819,     	0.129190100567,     	14804, 	15090, 	287,   	
86,    	0.121279850918,     	0.009142059752,     	0.011987397086,     	0.113232583715,     	15091, 	15377, 	287,   	
87,    	0.105512537943,     	0.008920161922,     	0.010771757146,     	0.097788453342,     	15378, 	15670, 	293,   	
88,    	0.089953664781,     	0.009047127209,     	0.011895276142,     	0.082119492125,     	15671, 	15964, 	294,   	
89,    	0.074207799046,     	0.009487810594,     	0.01196383437,      	0.065991888962,     	15965, 	16256, 	292,   	
90,    	0.057990422108,     	0.009254760693,     	0.01111820357,      	0.049976128544,     	16257, 	16547, 	291,   	
91,    	0.043269059597,     	0.00775336365,      	0.012123266527,     	0.036554741313,     	16548, 	16839, 	292,   	
92,    	0.030886795549,     	0.006564210834,     	0.012466688729,     	0.025202168009,     	16840, 	17129, 	290,   	
93,    	0.01807889498,      	0.008247334923,     	0.010798251198,     	0.010936606635,     	17130, 	17433, 	304,   	
94,    	0.005607654819,     	0.006163552527,     	0.011644047274,     	0.000269871303,     	17434, 	17743, 	310,   	
95,    	0,                  	0.006026966091,     	0.009512325762,     	-0.005219521354,    	17744, 	18131, 	388,   	
