This run aims to check if discrepancy is less than 0.0188
each row contains covering data for one orbit at phi, i.e. z = sin(phi), with the range of indices of directions corresponding to this orbit and the expected confidence radius at it. dtheta shows the amount that directions vary horizontally at this orbit.
 fd = first direction, ld = last direction, #d = number of directions 

number,	phi,                	expected radius,    	dtheta,             	covered phi,        	fd,    	ld,    	#d,    	

1,     	1.533126654624,     	0.011145998401,     	0.304283855563,     	1.523862479162,     	0,     	11,    	12,    	
2,     	1.501706992099,     	0.024539667388,     	0.364559944849,     	1.481419565288,     	12,    	21,    	10,    	
3,     	1.462180692803,     	0.021912486705,     	0.208811587368,     	1.443251788726,     	22,    	37,    	16,    	
4,     	1.42395133214,      	0.02203165527,      	0.152030985959,     	1.405237914252,     	38,    	59,    	22,    	
5,     	1.386278619692,     	0.021712753755,     	0.133425876241,     	1.367669461579,     	60,    	85,    	26,    	
6,     	1.349389271329,     	0.02086064365,      	0.111424474868,     	1.330933647386,     	86,    	117,   	32,    	
7,     	1.311696150548,     	0.021982791083,     	0.092183758894,     	1.292866804791,     	118,   	154,   	37,    	
8,     	1.273963343748,     	0.021853358162,     	0.084665308483,     	1.255138649438,     	155,   	195,   	41,    	
9,     	1.236530464017,     	0.021429382051,     	0.077077409012,     	1.217591409355,     	196,   	241,   	46,    	
10,    	1.199280462296,     	0.021032632592,     	0.068615233441,     	1.180884970085,     	242,   	292,   	51,    	
11,    	1.162297217988,     	0.021370510906,     	0.063780308665,     	1.143921027386,     	293,   	347,   	55,    	
12,    	1.125526414959,     	0.021155342899,     	0.049764635031,     	1.107218015085,     	348,   	407,   	60,    	
13,    	1.089017659831,     	0.021028725053,     	0.04670071876,      	1.070911313634,     	408,   	473,   	66,    	
14,    	1.054843172407,     	0.018467319091,     	0.039724521283,     	1.03825728829,      	474,   	542,   	69,    	
15,    	1.022212241622,     	0.018512102857,     	0.041811620015,     	1.006249932768,     	543,   	617,   	75,    	
16,    	0.991793387764,     	0.016640179224,     	0.030411430787,     	0.977435186336,     	618,   	704,   	87,    	
17,    	0.9677746076,       	0.011202950013,     	0.032136976288,     	0.958413422591,     	705,   	805,   	101,   	
18,    	0.94312503421,      	0.017610328728,     	0.038157273355,     	0.927112974586,     	806,   	890,   	85,    	
19,    	0.912087285609,     	0.017309072143,     	0.032916632626,     	0.897136455324,     	891,   	985,   	95,    	
20,    	0.883833101354,     	0.015332135655,     	0.033988094005,     	0.870590648492,     	986,   	1095,  	110,   	
21,    	0.859019002886,     	0.013842998018,     	0.029567042963,     	0.847058193187,     	1096,  	1211,  	116,   	
22,    	0.835805928324,     	0.013277044416,     	0.034201208553,     	0.824331879276,     	1212,  	1326,  	115,   	
23,    	0.811866791113,     	0.014376047124,     	0.028485642479,     	0.799443795042,     	1327,  	1450,  	124,   	
24,    	0.78902800743,      	0.012039181462,     	0.025970015945,     	0.778619894898,     	1451,  	1569,  	119,   	
25,    	0.76448914496,      	0.016321715324,     	0.03162177912,      	0.750385748712,     	1570,  	1690,  	121,   	
26,    	0.740709766047,     	0.011263408666,     	0.028803103328,     	0.730969765775,     	1691,  	1829,  	139,   	
27,    	0.717955309423,     	0.015054159244,     	0.024245970419,     	0.704942523859,     	1830,  	1952,  	123,   	
28,    	0.693367687664,     	0.013358117687,     	0.028798463086,     	0.681817582831,     	1953,  	2086,  	134,   	
29,    	0.670172392125,     	0.013459893049,     	0.026688960965,     	0.658533555368,     	2087,  	2225,  	139,   	
30,    	0.646296157443,     	0.014160167247,     	0.025753083994,     	0.634051796363,     	2226,  	2357,  	132,   	
31,    	0.621679809303,     	0.014272660104,     	0.027438370356,     	0.609337357393,     	2358,  	2497,  	140,   	
32,    	0.598435517979,     	0.012619715355,     	0.027093038064,     	0.586957262764,     	2498,  	2640,  	143,   	
33,    	0.577198674144,     	0.011281580818,     	0.025201149309,     	0.568292220545,     	2641,  	2780,  	140,   	
34,    	0.556451209048,     	0.013670018865,     	0.0239599228,       	0.54462697112,      	2781,  	2927,  	147,   	
35,    	0.532406232338,     	0.014123862514,     	0.026267528482,     	0.52018909666,      	2928,  	3074,  	147,   	
36,    	0.509416995355,     	0.012435752514,     	0.025438515349,     	0.498657977463,     	3075,  	3229,  	155,   	
37,    	0.489460284012,     	0.010653113522,     	0.025048356451,     	0.478335017722,     	3230,  	3384,  	155,   	
38,    	0.46500961217,      	0.015398408381,     	0.025714646169,     	0.451688806474,     	3385,  	3536,  	152,   	
39,    	0.44329575127,      	0.009713143658,     	0.024864855763,     	0.43364028559,      	3537,  	3698,  	162,   	
40,    	0.421307848968,     	0.014240779729,     	0.020188879913,     	0.408527621047,     	3699,  	3852,  	154,   	
41,    	0.399570494188,     	0.010350498351,     	0.024119528656,     	0.389675970074,     	3853,  	4014,  	162,   	
42,    	0.37703218997,      	0.014587903337,     	0.020870913835,     	0.364409004779,     	4015,  	4174,  	160,   	
43,    	0.352519312241,     	0.014156696338,     	0.020392822075,     	0.340268265262,     	4175,  	4333,  	159,   	
44,    	0.326105338574,     	0.016381919833,     	0.02221799366,      	0.311929207645,     	4334,  	4494,  	161,   	
45,    	0.299637909748,     	0.01421117167,      	0.019056720323,     	0.28727994208,      	4495,  	4663,  	169,   	
46,    	0.277470829659,     	0.011321601538,     	0.019669365151,     	0.266936312908,     	4664,  	4830,  	167,   	
47,    	0.254289190056,     	0.014620213003,     	0.021720335955,     	0.241634433584,     	4831,  	5002,  	172,   	
48,    	0.227287576604,     	0.016584466481,     	0.021665541197,     	0.212932630217,     	5003,  	5170,  	168,   	
49,    	0.201798073777,     	0.012869786404,     	0.022983735349,     	0.190656593747,     	5171,  	5338,  	168,   	
50,    	0.180687778782,     	0.011539556764,     	0.021023386321,     	0.169890528633,     	5339,  	5515,  	177,   	
51,    	0.156911434864,     	0.014997512665,     	0.019740528141,     	0.143927412876,     	5516,  	5688,  	173,   	
52,    	0.132487621091,     	0.013224875107,     	0.021416582539,     	0.12103728999,      	5689,  	5860,  	172,   	
53,    	0.110793156211,     	0.01183628378,      	0.018801792743,     	0.100480674104,     	5861,  	6043,  	183,   	
54,    	0.087394832381,     	0.01512000911,      	0.020584309161,     	0.07430277486,      	6044,  	6215,  	172,   	
55,    	0.064852695787,     	0.011546853301,     	0.014404488305,     	0.054853798757,     	6216,  	6392,  	177,   	
56,    	0.045220958808,     	0.012086056439,     	0.016089210672,     	0.0347548258,       	6393,  	6574,  	182,   	
57,    	0.023409064078,     	0.013105155499,     	0.021201830807,     	0.012060006719,     	6575,  	6739,  	165,   	
58,    	0.004719252981,     	0.008499625451,     	0.01983673393,      	-0.002641640266,    	6740,  	6963,  	224,   	
