This run aims to check if discrepancy is less than 0.0226
each row contains covering data for one orbit at phi, i.e. z = sin(phi), with the range of indices of directions corresponding to this orbit and the expected confidence radius at it. dtheta shows the amount that directions vary horizontally at this orbit.
 fd = first direction, ld = last direction, #d = number of directions 

number,	phi,                	expected radius,    	dtheta,             	covered phi,        	fd,    	ld,    	#d,    	

1,     	1.525938174202,     	0.014355298634,     	0.34295581966,      	1.513809859837,     	0,     	10,    	11,    	
2,     	1.487425141082,     	0.029006596175,     	0.35715656025,      	1.463151566782,     	11,    	20,    	10,    	
3,     	1.440426250632,     	0.025592252337,     	0.220926018926,     	1.418330693814,     	21,    	37,    	17,    	
4,     	1.395591119639,     	0.026040886572,     	0.151949063677,     	1.373436797238,     	38,    	57,    	20,    	
5,     	1.351037507644,     	0.025616172967,     	0.138884200533,     	1.329185388965,     	58,    	83,    	26,    	
6,     	1.306709495498,     	0.025719139749,     	0.098570145245,     	1.284467100053,     	84,    	114,   	31,    	
7,     	1.261490881772,     	0.026236101027,     	0.103219830867,     	1.238238431056,     	115,   	149,   	35,    	
8,     	1.216191668557,     	0.025249155301,     	0.072734138063,     	1.193939656635,     	150,   	189,   	40,    	
9,     	1.172045318392,     	0.02519022021,      	0.064889878992,     	1.149915175384,     	190,   	234,   	45,    	
10,    	1.12860214811,      	0.024536017743,     	0.066391830183,     	1.106663299463,     	235,   	284,   	50,    	
11,    	1.087740689425,     	0.021723633346,     	0.059541367397,     	1.068331996087,     	285,   	340,   	56,    	
12,    	1.052810392291,     	0.018676799584,     	0.049586187877,     	1.035988131289,     	341,   	407,   	67,    	
13,    	1.021161179224,     	0.017068426583,     	0.046348570774,     	1.005803488376,     	408,   	490,   	83,    	
14,    	0.990040605573,     	0.018234603332,     	0.034704281121,     	0.97400772421,      	491,   	563,   	73,    	
15,    	0.960309441085,     	0.015782815921,     	0.040919270753,     	0.944944498008,     	564,   	642,   	79,    	
16,    	0.933459473475,     	0.013339708455,     	0.037441079405,     	0.921053480593,     	643,   	740,   	98,    	
17,    	0.90689009271,      	0.01632965508,      	0.043288905855,     	0.890287779661,     	741,   	820,   	80,    	
18,    	0.876693998541,     	0.015674023846,     	0.039759920554,     	0.863062726412,     	821,   	916,   	96,    	
19,    	0.850683949945,     	0.015520977795,     	0.03831215937,      	0.837012604382,     	917,   	1022,  	106,   	
20,    	0.82327265949,      	0.015861750936,     	0.036524542673,     	0.809257397588,     	1023,  	1121,  	99,    	
21,    	0.796694399807,     	0.014479449496,     	0.031249385476,     	0.784181416715,     	1122,  	1235,  	114,   	
22,    	0.770220179415,     	0.016118299224,     	0.031664238204,     	0.756292526419,     	1236,  	1339,  	104,   	
23,    	0.747475472875,     	0.01692011519,      	0.034551353719,     	0.732855045986,     	1340,  	1453,  	114,   	
24,    	0.717905844892,     	0.017232745348,     	0.029689281623,     	0.703013902847,     	1454,  	1568,  	115,   	
25,    	0.691614312082,     	0.013156130292,     	0.031464946755,     	0.682975379809,     	1569,  	1684,  	116,   	
26,    	0.671340917864,     	0.013439461147,     	0.024071057907,     	0.659099788246,     	1685,  	1809,  	125,   	
27,    	0.646045284296,     	0.015052487417,     	0.024755894422,     	0.632904852526,     	1810,  	1931,  	122,   	
28,    	0.621358062191,     	0.013355843952,     	0.026405278332,     	0.609807354757,     	1932,  	2065,  	134,   	
29,    	0.596222664716,     	0.015691514328,     	0.020238781987,     	0.582654023035,     	2066,  	2190,  	125,   	
30,    	0.571031301819,     	0.013432638709,     	0.029683733003,     	0.559953858283,     	2191,  	2322,  	132,   	
31,    	0.54686664209,      	0.015100960498,     	0.025995679936,     	0.533145520285,     	2323,  	2450,  	128,   	
32,    	0.520131893693,     	0.015068393576,     	0.027723243044,     	0.508081429163,     	2451,  	2581,  	131,   	
33,    	0.498156637555,     	0.011476564795,     	0.022058440946,     	0.485668416301,     	2582,  	2716,  	135,   	
34,    	0.471085795213,     	0.017384757046,     	0.028700938552,     	0.456049017873,     	2717,  	2849,  	133,   	
35,    	0.445310516522,     	0.012410102159,     	0.025313436671,     	0.433451090819,     	2850,  	2992,  	143,   	
36,    	0.419723304116,     	0.015888016714,     	0.030173162114,     	0.405841452323,     	2993,  	3130,  	138,   	
37,    	0.393726623513,     	0.013986845176,     	0.025954961071,     	0.381466787791,     	3131,  	3273,  	143,   	
38,    	0.369766892763,     	0.013502536157,     	0.024673287397,     	0.358082009322,     	3274,  	3417,  	144,   	
39,    	0.348729805764,     	0.010813392865,     	0.024235343751,     	0.340546170274,     	3418,  	3569,  	152,   	
40,    	0.327718924233,     	0.01482558087,      	0.024752750037,     	0.314796904848,     	3570,  	3716,  	147,   	
41,    	0.304018614052,     	0.012454931866,     	0.022245738891,     	0.292436069058,     	3717,  	3867,  	151,   	
42,    	0.282315428578,     	0.011705340061,     	0.024730529932,     	0.27082232854,      	3868,  	4015,  	148,   	
43,    	0.261250980591,     	0.01122171401,      	0.022964374121,     	0.249050262915,     	4016,  	4168,  	153,   	
44,    	0.236771124613,     	0.014327478605,     	0.025949675054,     	0.224119839575,     	4169,  	4318,  	150,   	
45,    	0.211226699633,     	0.014885579477,     	0.023733401183,     	0.198796986826,     	4319,  	4472,  	154,   	
46,    	0.186622885309,     	0.014063022771,     	0.016154492114,     	0.173854206255,     	4473,  	4626,  	154,   	
47,    	0.164336368027,     	0.011010941697,     	0.023114949704,     	0.153839868718,     	4627,  	4780,  	154,   	
48,    	0.140050510242,     	0.015920297853,     	0.016604848567,     	0.126267303178,     	4781,  	4937,  	157,   	
49,    	0.112303134495,     	0.016134509016,     	0.024373007893,     	0.098333606676,     	4938,  	5088,  	151,   	
50,    	0.087305994355,     	0.012739133955,     	0.02043212038,      	0.075826930887,     	5089,  	5249,  	161,   	
51,    	0.063549185143,     	0.014200194602,     	0.024558848243,     	0.051252853227,     	5250,  	5401,  	152,   	
52,    	0.036366836471,     	0.017208762677,     	0.025972218259,     	0.021464589888,     	5402,  	5552,  	151,   	
53,    	0.011411705099,     	0.011628968928,     	0.029876567144,     	0.003973796584,     	5553,  	5718,  	166,   	
54,    	0,                  	0.007157166102,     	0.017534108726,     	-0.00419155434,     	5719,  	5983,  	265,   	
