This run aims to check if discrepancy is less than 0.0171
each row contains covering data for one orbit at phi, i.e. z = sin(phi), with the range of indices of directions corresponding to this orbit and the expected confidence radius at it. dtheta shows the amount that directions vary horizontally at this orbit.
 fd = first direction, ld = last direction, #d = number of directions 

number,	phi,                	expected radius,    	dtheta,             	covered phi,        	fd,    	ld,    	#d,    	

1,     	1.536125257876,     	0.010023319091,     	0.291038562061,     	1.527701649975,     	0,     	11,    	12,    	
2,     	1.507399379381,     	0.023775832319,     	0.385940017781,     	1.487657507334,     	12,    	21,    	10,    	
3,     	1.470452986514,     	0.019795831369,     	0.197935379507,     	1.453757857361,     	22,    	38,    	17,    	
4,     	1.436122195406,     	0.019974868542,     	0.159731525897,     	1.41884322956,      	39,    	59,    	21,    	
5,     	1.401427565064,     	0.020030676119,     	0.131719155034,     	1.384028137864,     	60,    	86,    	27,    	
6,     	1.368077111341,     	0.018260545297,     	0.09716578988,      	1.351357422918,     	87,    	117,   	31,    	
7,     	1.333759521272,     	0.02026182052,      	0.094166796596,     	1.316325374674,     	118,   	153,   	36,    	
8,     	1.299160043004,     	0.019766179601,     	0.07772625125,      	1.281984539846,     	154,   	194,   	41,    	
9,     	1.264893736454,     	0.019588024013,     	0.074644309513,     	1.247737089198,     	195,   	240,   	46,    	
10,    	1.231288031878,     	0.018914914241,     	0.07145567733,      	1.213197227336,     	241,   	289,   	49,    	
11,    	1.196405852454,     	0.019424275641,     	0.056278132579,     	1.179380071844,     	290,   	345,   	56,    	
12,    	1.163091221985,     	0.019017792951,     	0.057737601723,     	1.146725528167,     	346,   	406,   	61,    	
13,    	1.129311243372,     	0.019989375203,     	0.047775925973,     	1.112105066129,     	407,   	471,   	65,    	
14,    	1.096714284937,     	0.018303132328,     	0.042714143596,     	1.080368875591,     	472,   	538,   	67,    	
15,    	1.06426099177,      	0.019966561979,     	0.04115829845,      	1.047058699774,     	539,   	610,   	72,    	
16,    	1.030347594838,     	0.019219277507,     	0.037355913025,     	1.013779659358,     	611,   	688,   	78,    	
17,    	1.001895449658,     	0.013698490776,     	0.037305228543,     	0.988772653232,     	689,   	773,   	85,    	
18,    	0.97527919048,      	0.015547850915,     	0.035299085574,     	0.961339786892,     	774,   	869,   	96,    	
19,    	0.949830184276,     	0.013284540771,     	0.028067873065,     	0.938197448677,     	870,   	980,   	111,   	
20,    	0.924266192627,     	0.016622526214,     	0.027593773083,     	0.909916096891,     	981,   	1081,  	101,   	
21,    	0.894112387642,     	0.018232620871,     	0.03585196725,      	0.878373777794,     	1082,  	1182,  	101,   	
22,    	0.866276341921,     	0.013965602462,     	0.021563315424,     	0.854210260903,     	1183,  	1295,  	113,   	
23,    	0.844647232582,     	0.011061453545,     	0.027932621119,     	0.835084859062,     	1296,  	1431,  	136,   	
24,    	0.822851150969,     	0.014126428471,     	0.025432759485,     	0.81064398963,      	1432,  	1552,  	121,   	
25,    	0.801675730101,     	0.010365654247,     	0.030943762972,     	0.791755444096,     	1553,  	1680,  	128,   	
26,    	0.781893085861,     	0.011383459045,     	0.027458544572,     	0.772050699934,     	1681,  	1817,  	137,   	
27,    	0.761184919408,     	0.012539302698,     	0.028364204968,     	0.750344147925,     	1818,  	1944,  	127,   	
28,    	0.741386875213,     	0.010366695772,     	0.024729407752,     	0.732321114592,     	1945,  	2084,  	140,   	
29,    	0.720396524683,     	0.013783017611,     	0.030157806791,     	0.708480737155,     	2085,  	2216,  	132,   	
30,    	0.699646111822,     	0.010206720965,     	0.024943242215,     	0.690143995608,     	2217,  	2355,  	139,   	
31,    	0.680633673814,     	0.010985923648,     	0.021873037058,     	0.67106404016,      	2356,  	2504,  	149,   	
32,    	0.660289778735,     	0.012430944821,     	0.025161727774,     	0.649539126842,     	2505,  	2647,  	143,   	
33,    	0.639707853932,     	0.011371583862,     	0.022783935651,     	0.629230185803,     	2648,  	2803,  	156,   	
34,    	0.618471405751,     	0.012419292856,     	0.02282067743,      	0.607464120886,     	2804,  	2950,  	147,   	
35,    	0.598688200271,     	0.010148654086,     	0.024700890611,     	0.589390685431,     	2951,  	3099,  	149,   	
36,    	0.57836389949,      	0.012729742183,     	0.021695987422,     	0.567269339641,     	3100,  	3254,  	155,   	
37,    	0.554790427344,     	0.014396850017,     	0.026334777739,     	0.542338230852,     	3255,  	3404,  	150,   	
38,    	0.533125664098,     	0.010645107523,     	0.020374091504,     	0.523028601713,     	3405,  	3564,  	160,   	
39,    	0.514535957409,     	0.009821040955,     	0.023930051158,     	0.504352569438,     	3565,  	3726,  	162,   	
40,    	0.49208740363,      	0.014151271285,     	0.019725016265,     	0.479771019002,     	3727,  	3883,  	157,   	
41,    	0.467948394747,     	0.014455960457,     	0.023463940508,     	0.455442149937,     	3884,  	4047,  	164,   	
42,    	0.44569961108,      	0.011250114247,     	0.0224397814,       	0.435031599652,     	4048,  	4215,  	168,   	
43,    	0.423038564876,     	0.013854279182,     	0.020284954861,     	0.410521862763,     	4216,  	4378,  	163,   	
44,    	0.399890774465,     	0.012277075556,     	0.020057674059,     	0.38856891131,      	4379,  	4552,  	174,   	
45,    	0.376992061596,     	0.013389876254,     	0.016451056331,     	0.365393645875,     	4553,  	4729,  	177,   	
46,    	0.35416689841,      	0.012969222027,     	0.019960786217,     	0.342729440495,     	4730,  	4901,  	172,   	
47,    	0.330104873703,     	0.014573967591,     	0.022303992919,     	0.317492321657,     	4902,  	5078,  	177,   	
48,    	0.306143871722,     	0.013153203716,     	0.020878863486,     	0.294759534667,     	5079,  	5258,  	180,   	
49,    	0.281916177791,     	0.014832234079,     	0.021720550434,     	0.269078815788,     	5259,  	5434,  	176,   	
50,    	0.258498013126,     	0.012225200164,     	0.020221418799,     	0.247629874978,     	5435,  	5613,  	179,   	
51,    	0.234921364177,     	0.01467018019,      	0.020702084378,     	0.22222282655,      	5614,  	5796,  	183,   	
52,    	0.210494860744,     	0.013552916123,     	0.018924730857,     	0.198762417278,     	5797,  	5977,  	181,   	
53,    	0.187248601749,     	0.01332967631,      	0.019312339847,     	0.175631244006,     	5978,  	6159,  	182,   	
54,    	0.165181038947,     	0.012067104854,     	0.019416584349,     	0.154236262667,     	6160,  	6345,  	186,   	
55,    	0.144561569598,     	0.011195968907,     	0.018995401056,     	0.134109028697,     	6346,  	6530,  	185,   	
56,    	0.121692493205,     	0.014348300414,     	0.020529698308,     	0.109240265933,     	6531,  	6710,  	180,   	
57,    	0.098287655142,     	0.012663309795,     	0.018769993781,     	0.087189434594,     	6711,  	6898,  	188,   	
58,    	0.078144165735,     	0.010496131223,     	0.019715076257,     	0.068895544789,     	6899,  	7083,  	185,   	
59,    	0.058799240236,     	0.011659719785,     	0.01984003131,      	0.04870251272,      	7084,  	7270,  	187,   	
60,    	0.040238990395,     	0.009793135338,     	0.016360732809,     	0.031758301347,     	7271,  	7470,  	200,   	
61,    	0.020267142062,     	0.013913313763,     	0.017787978414,     	0.008218155016,     	7471,  	7645,  	175,   	
62,    	0.00108878407,      	0.008262276814,     	0.012674354766,     	-0.004229410955,    	7646,  	7919,  	274,   	
