This run aims to check if discrepancy is less than 0.0071
each row contains covering data for one orbit at phi, i.e. z = sin(phi), with the range of indices of directions corresponding to this orbit and the expected confidence radius at it. dtheta shows the amount that directions vary horizontally at this orbit.
 fd = first direction, ld = last direction, #d = number of directions 

number,	phi,                	expected radius,    	dtheta,             	covered phi,        	fd,    	ld,    	#d,    	

1,     	1.556245959658,     	0.004306963415,     	0.298731052651,     	1.552671752665,     	0,     	11,    	12,    	
2,     	1.54386659315,      	0.00969715504,      	0.369058128482,     	1.535872128126,     	12,    	21,    	10,    	
3,     	1.528360325713,     	0.00874866464,      	0.209240996058,     	1.520974390781,     	22,    	37,    	16,    	
4,     	1.513647195612,     	0.008459934051,     	0.157768764766,     	1.506193724945,     	38,    	59,    	22,    	
5,     	1.498865088822,     	0.008372522912,     	0.116562614076,     	1.491698726649,     	60,    	86,    	27,    	
6,     	1.48437526652,      	0.008476972331,     	0.100017716822,     	1.477008371843,     	87,    	118,   	32,    	
7,     	1.469736081536,     	0.008750806051,     	0.090306107437,     	1.462149980091,     	119,   	155,   	37,    	
8,     	1.455106777918,     	0.008277293051,     	0.074960509148,     	1.447931019048,     	156,   	199,   	44,    	
9,     	1.440605589773,     	0.008523661156,     	0.066374418525,     	1.433285105251,     	200,   	247,   	48,    	
10,    	1.425872333047,     	0.008592383457,     	0.061787915926,     	1.418436857601,     	248,   	300,   	53,    	
11,    	1.411148697386,     	0.008447039476,     	0.056470325852,     	1.403847072546,     	301,   	358,   	58,    	
12,    	1.396879697686,     	0.008021399154,     	0.050310911967,     	1.389842744818,     	359,   	423,   	65,    	
13,    	1.382604127211,     	0.008325190635,     	0.048887443228,     	1.375330307797,     	424,   	491,   	68,    	
14,    	1.368052976348,     	0.008459965626,     	0.045955106419,     	1.360721213397,     	492,   	564,   	73,    	
15,    	1.353615649727,     	0.008162891339,     	0.041477489737,     	1.346512306506,     	565,   	644,   	80,    	
16,    	1.339362146265,     	0.008312058046,     	0.036836381384,     	1.332079939308,     	645,   	727,   	83,    	
17,    	1.32468492284,      	0.008520595207,     	0.034974658238,     	1.317341955649,     	728,   	815,   	88,    	
18,    	1.310199344171,     	0.00826980184,      	0.033579063147,     	1.303069505551,     	816,   	908,   	93,    	
19,    	1.295423913101,     	0.00881764989,      	0.03243053764,      	1.287821954332,     	909,   	1005,  	97,    	
20,    	1.279637851555,     	0.009437050029,     	0.032876070699,     	1.271502216438,     	1006,  	1100,  	95,    	
21,    	1.262828845421,     	0.009998250348,     	0.032985700052,     	1.254187423135,     	1101,  	1193,  	93,    	
22,    	1.244954305152,     	0.010683993312,     	0.035150705001,     	1.235665432745,     	1194,  	1285,  	92,    	
23,    	1.227200502493,     	0.009750666989,     	0.030755077419,     	1.218692237337,     	1286,  	1391,  	106,   	
24,    	1.210895213955,     	0.009125486566,     	0.025912028647,     	1.2030174568,       	1392,  	1508,  	117,   	
25,    	1.195164278284,     	0.009071117428,     	0.02636583267,      	1.187334489716,     	1509,  	1632,  	124,   	
26,    	1.179056910514,     	0.009660011921,     	0.026041796544,     	1.170719268339,     	1633,  	1753,  	121,   	
27,    	1.161939416838,     	0.010114039455,     	0.025440924643,     	1.153111242094,     	1754,  	1871,  	118,   	
28,    	1.14419615319,      	0.010284780735,     	0.027696474422,     	1.135174703697,     	1872,  	1992,  	121,   	
29,    	1.127203552786,     	0.009288254717,     	0.022757961023,     	1.119179514231,     	1993,  	2130,  	138,   	
30,    	1.111755984721,     	0.008756488807,     	0.019762736367,     	1.104181533346,     	2131,  	2278,  	148,   	
31,    	1.096420349017,     	0.009009657054,     	0.021371215441,     	1.088637465689,     	2279,  	2432,  	154,   	
32,    	1.081567628146,     	0.008179482075,     	0.018339440752,     	1.074329495591,     	2433,  	2592,  	160,   	
33,    	1.067017971934,     	0.00843130839,      	0.017465823769,     	1.059566097495,     	2593,  	2756,  	164,   	
34,    	1.051744303794,     	0.009051488189,     	0.019049773901,     	1.043915791645,     	2757,  	2921,  	165,   	
35,    	1.035851124523,     	0.009392928714,     	0.018425213836,     	1.02773516131,      	2922,  	3086,  	165,   	
36,    	1.019277227276,     	0.009783765352,     	0.018672231452,     	1.010823620447,     	3087,  	3248,  	162,   	
37,    	1.002405547561,     	0.009730479567,     	0.018566562919,     	0.993997169485,     	3249,  	3411,  	163,   	
38,    	0.986070077139,     	0.009159950373,     	0.018732931664,     	0.978153116794,     	3412,  	3586,  	175,   	
39,    	0.970488897871,     	0.008865783611,     	0.016953897586,     	0.962738456382,     	3587,  	3771,  	185,   	
40,    	0.955369326364,     	0.008520944205,     	0.0176450889,       	0.947979358418,     	3772,  	3965,  	194,   	
41,    	0.940542887219,     	0.008621311286,     	0.016605810546,     	0.933089302661,     	3966,  	4164,  	199,   	
42,    	0.926219537638,     	0.008052005271,     	0.016999816442,     	0.919208653089,     	4165,  	4369,  	205,   	
43,    	0.91208289673,      	0.008403184189,     	0.016681066307,     	0.904816886513,     	4370,  	4578,  	209,   	
44,    	0.897612413899,     	0.008311214079,     	0.015913309438,     	0.890387228075,     	4579,  	4792,  	214,   	
45,    	0.883127825876,     	0.008378957756,     	0.015034094606,     	0.875882076989,     	4793,  	5012,  	220,   	
46,    	0.869487273154,     	0.007392140842,     	0.014719278668,     	0.863064259811,     	5013,  	5237,  	225,   	
47,    	0.856706942322,     	0.007520256264,     	0.015300819238,     	0.8502023356,       	5238,  	5465,  	228,   	
48,    	0.843725287866,     	0.007473549172,     	0.013931619103,     	0.837260822098,     	5466,  	5693,  	228,   	
49,    	0.831010354042,     	0.007209855574,     	0.014901234118,     	0.824771894839,     	5694,  	5917,  	224,   	
50,    	0.818080757288,     	0.007730209471,     	0.014429344693,     	0.811394140729,     	5918,  	6143,  	226,   	
51,    	0.804350470321,     	0.008483331075,     	0.012417803168,     	0.797012989629,     	6144,  	6372,  	229,   	
52,    	0.789732568918,     	0.008407897469,     	0.013235750181,     	0.782459986974,     	6373,  	6605,  	233,   	
53,    	0.777211603684,     	0.006078826136,     	0.011524056835,     	0.771735696363,     	6606,  	6847,  	242,   	
54,    	0.764425377854,     	0.008447212083,     	0.011983683757,     	0.75711838714,      	6848,  	7092,  	245,   	
55,    	0.749873713191,     	0.008416808842,     	0.012902474998,     	0.74259274749,      	7093,  	7339,  	247,   	
56,    	0.735825209134,     	0.007812349646,     	0.01314330507,      	0.729066389504,     	7340,  	7593,  	254,   	
57,    	0.722088252164,     	0.008077114792,     	0.011739798204,     	0.715100410398,     	7594,  	7850,  	257,   	
58,    	0.709710093087,     	0.006225131505,     	0.012548832931,     	0.704200278098,     	7851,  	8119,  	269,   	
59,    	0.697572828913,     	0.007658214657,     	0.010928236274,     	0.690946732598,     	8120,  	8389,  	270,   	
60,    	0.68400197958,      	0.008012386836,     	0.012035102477,     	0.677069554648,     	8390,  	8657,  	268,   	
61,    	0.670264440494,     	0.007892386202,     	0.011220199697,     	0.663435570235,     	8658,  	8928,  	271,   	
62,    	0.657292633975,     	0.007102073024,     	0.012178264257,     	0.651052754885,     	8929,  	9199,  	271,   	
63,    	0.64386007384,      	0.008348606886,     	0.012648976194,     	0.636636465407,     	9200,  	9468,  	269,   	
64,    	0.630636158512,     	0.006924866788,     	0.010627402593,     	0.624643400387,     	9469,  	9741,  	273,   	
65,    	0.619299742962,     	0.006175692091,     	0.012111247905,     	0.613664722617,     	9742,  	10016, 	275,   	
66,    	0.609245519368,     	0.005107676677,     	0.011005087595,     	0.604420914217,     	10017, 	10300, 	284,   	
67,    	0.598755221121,     	0.006553133134,     	0.011611554054,     	0.593028351742,     	10301, 	10586, 	286,   	
68,    	0.586218211643,     	0.00785977544,      	0.01178437135,      	0.579416539582,     	10587, 	10869, 	283,   	
69,    	0.572562535698,     	0.00799849611,      	0.011313271382,     	0.565640752676,     	10870, 	11152, 	283,   	
70,    	0.558436823508,     	0.008346752394,     	0.010694317474,     	0.551213722894,     	11153, 	11436, 	284,   	
71,    	0.544011994909,     	0.008413546803,     	0.010757299784,     	0.536730959039,     	11437, 	11726, 	290,   	
72,    	0.529487043449,     	0.008376762535,     	0.011057727872,     	0.522237645049,     	11727, 	12020, 	294,   	
73,    	0.515269937606,     	0.008045986373,     	0.01063804382,      	0.508306454188,     	12021, 	12319, 	299,   	
74,    	0.500923965547,     	0.008646399754,     	0.010923476187,     	0.493441033539,     	12320, 	12617, 	298,   	
75,    	0.486206890829,     	0.008364712868,     	0.011126217027,     	0.478967417354,     	12618, 	12920, 	303,   	
76,    	0.47180820352,      	0.008280823068,     	0.009713927073,     	0.464641132912,     	12921, 	13228, 	308,   	
77,    	0.458293524007,     	0.00733362093,      	0.01081197711,      	0.451664613482,     	13229, 	13535, 	307,   	
78,    	0.444896777454,     	0.007953989075,     	0.01067371757,      	0.437919062798,     	13536, 	13843, 	308,   	
79,    	0.431330752269,     	0.007627016248,     	0.010996341888,     	0.42451878372,      	13844, 	14152, 	309,   	
80,    	0.417834044493,     	0.007727705677,     	0.011224764857,     	0.41094114256,      	14153, 	14463, 	311,   	
81,    	0.403891533077,     	0.008136467689,     	0.010368511972,     	0.396848643186,     	14464, 	14776, 	313,   	
82,    	0.390252402882,     	0.007621759336,     	0.009236258002,     	0.38340992298,      	14777, 	15090, 	314,   	
83,    	0.376580195214,     	0.007899476467,     	0.011319009566,     	0.369742096941,     	15091, 	15408, 	318,   	
84,    	0.362481969727,     	0.008382755615,     	0.009753413728,     	0.355225579012,     	15409, 	15726, 	318,   	
85,    	0.34830634142,      	0.008003517931,     	0.009943272714,     	0.341377962131,     	15727, 	16048, 	322,   	
86,    	0.334750548352,     	0.007674808261,     	0.009566251453,     	0.327830578602,     	16049, 	16370, 	322,   	
87,    	0.321630415444,     	0.007201766217,     	0.009253559027,     	0.315015304533,     	16371, 	16695, 	325,   	
88,    	0.307767302266,     	0.008435866031,     	0.009854195496,     	0.300464412209,     	16696, 	17021, 	326,   	
89,    	0.29386114698,      	0.007644055779,     	0.009556044985,     	0.286785499734,     	17022, 	17348, 	327,   	
90,    	0.279402327401,     	0.008525246532,     	0.010406422804,     	0.272021809103,     	17349, 	17678, 	330,   	
91,    	0.264574022227,     	0.008604002294,     	0.009710054399,     	0.257125198812,     	17679, 	18010, 	332,   	
92,    	0.250789950474,     	0.007330604637,     	0.010801901718,     	0.24396122181,      	18011, 	18345, 	335,   	
93,    	0.237537313765,     	0.007429667459,     	0.00966037612,      	0.230874497358,     	18346, 	18683, 	338,   	
94,    	0.224161929582,     	0.007786548606,     	0.009869829419,     	0.217242796286,     	18684, 	19023, 	340,   	
95,    	0.21002752144,      	0.008340315798,     	0.010055951778,     	0.202806407777,     	19024, 	19362, 	339,   	
96,    	0.195987533678,     	0.007872761228,     	0.008804461117,     	0.189171025432,     	19363, 	19704, 	342,   	
97,    	0.181994114533,     	0.008298726694,     	0.009703391236,     	0.17480874932,      	19705, 	20046, 	342,   	
98,    	0.167489388338,     	0.008498684336,     	0.009928817175,     	0.160130793954,     	20047, 	20386, 	340,   	
99,    	0.153060122903,     	0.008180643399,     	0.008992419622,     	0.145976729013,     	20387, 	20728, 	342,   	
100,   	0.139428120514,     	0.007632817431,     	0.00901320301,      	0.13281889675,      	20729, 	21074, 	346,   	
101,   	0.126049960515,     	0.00783081365,      	0.00912109347,      	0.119269213542,     	21075, 	21424, 	350,   	
102,   	0.113764839681,     	0.006368545115,     	0.009768557144,     	0.107367083283,     	21425, 	21779, 	355,   	
103,   	0.100652279433,     	0.007772067813,     	0.009842581695,     	0.093922199827,     	21780, 	22133, 	354,   	
104,   	0.087415701082,     	0.00754128944,      	0.008702748339,     	0.080885344917,     	22134, 	22486, 	353,   	
105,   	0.074384069351,     	0.007513324227,     	0.009240544358,     	0.067877835041,     	22487, 	22836, 	350,   	
106,   	0.061510953326,     	0.007404394569,     	0.009882168623,     	0.05509895225,      	22837, 	23186, 	350,   	
107,   	0.04812585698,      	0.008057709588,     	0.009846783237,     	0.041148028955,     	23187, 	23536, 	350,   	
108,   	0.035589965375,     	0.006430970002,     	0.009624506304,     	0.030020746634,     	23537, 	23895, 	359,   	
109,   	0.025703237238,     	0.004993734103,     	0.009257282208,     	0.021378608169,     	23896, 	24257, 	362,   	
110,   	0.01560604022,      	0.00668906033,      	0.009073695141,     	0.009813209583,     	24258, 	24629, 	372,   	
111,   	0.004377058657,     	0.006285255724,     	0.009000423673,     	-0.001066128537,    	24630, 	25005, 	376,   	
