This run aims to check if discrepancy is less than 0.0065
each row contains covering data for one orbit at phi, i.e. z = sin(phi), with the range of indices of directions corresponding to this orbit and the expected confidence radius at it. dtheta shows the amount that directions vary horizontally at this orbit.
 fd = first direction, ld = last direction, #d = number of directions 

number,	phi,                	expected radius,    	dtheta,             	covered phi,        	fd,    	ld,    	#d,    	

1,     	1.557531071167,     	0.003955727793,     	0.299940469481,     	1.554250620092,     	0,     	11,    	12,    	
2,     	1.546280666474,     	0.008787885248,     	0.362930247508,     	1.539044475209,     	12,    	21,    	10,    	
3,     	1.532225324676,     	0.007773107331,     	0.203873059811,     	1.525607116119,     	22,    	38,    	17,    	
4,     	1.518691440745,     	0.007897117156,     	0.151776170605,     	1.512001995108,     	39,    	60,    	22,    	
5,     	1.505183969045,     	0.007759798913,     	0.121531414079,     	1.498543069542,     	61,    	88,    	28,    	
6,     	1.491926481878,     	0.00756043845,      	0.09599599358,      	1.485438288997,     	89,    	121,   	33,    	
7,     	1.478680993771,     	0.007813924456,     	0.086477631968,     	1.471987439455,     	122,   	159,   	38,    	
8,     	1.465428258515,     	0.007618469392,     	0.073297136759,     	1.458805454749,     	160,   	202,   	43,    	
9,     	1.452253951717,     	0.007713978037,     	0.070442139389,     	1.445548459949,     	203,   	250,   	48,    	
10,    	1.438839237901,     	0.007686440274,     	0.060114755481,     	1.43214275033,      	251,   	303,   	53,    	
11,    	1.425541822422,     	0.007654439855,     	0.055660061964,     	1.418834846623,     	304,   	361,   	58,    	
12,    	1.412220156413,     	0.007914421024,     	0.053047397206,     	1.405411200425,     	362,   	424,   	63,    	
13,    	1.399078475642,     	0.007507424852,     	0.044986643204,     	1.392563990724,     	425,   	493,   	69,    	
14,    	1.385953942678,     	0.007671949617,     	0.045966984123,     	1.379287299984,     	494,   	566,   	73,    	
15,    	1.372649179222,     	0.007716089656,     	0.042386207391,     	1.365902378932,     	567,   	644,   	78,    	
16,    	1.359381519875,     	0.007606416374,     	0.037290499932,     	1.352732219651,     	645,   	727,   	83,    	
17,    	1.345925202538,     	0.007884155782,     	0.036250118131,     	1.339086240234,     	728,   	814,   	87,    	
18,    	1.331581698546,     	0.0087021049,       	0.036729152451,     	1.324084223394,     	815,   	899,   	85,    	
19,    	1.315839073543,     	0.00950669614,      	0.040315575476,     	1.307610511815,     	900,   	981,   	82,    	
20,    	1.299510242919,     	0.009467743746,     	0.035333101881,     	1.291351162782,     	982,   	1068,  	87,    	
21,    	1.283832509461,     	0.008677111313,     	0.032056798981,     	1.276349757387,     	1069,  	1170,  	102,   	
22,    	1.269233561647,     	0.008187582027,     	0.030094055531,     	1.262063116502,     	1171,  	1279,  	109,   	
23,    	1.254583553326,     	0.008639948205,     	0.028897016049,     	1.247111484927,     	1280,  	1391,  	112,   	
24,    	1.238875898076,     	0.009515095145,     	0.029201054162,     	1.230648777083,     	1392,  	1497,  	106,   	
25,    	1.2220205142,       	0.009924984886,     	0.030940694984,     	1.213423899027,     	1498,  	1604,  	107,   	
26,    	1.205720297967,     	0.00886862754,      	0.0248413192,       	1.198042526489,     	1605,  	1728,  	124,   	
27,    	1.190927974207,     	0.008283755032,     	0.024861828001,     	1.183667563017,     	1729,  	1863,  	135,   	
28,    	1.176155140202,     	0.008741959002,     	0.023951401926,     	1.168592685219,     	1864,  	1997,  	134,   	
29,    	1.1604512104,       	0.009434499262,     	0.026071493661,     	1.152306210032,     	1998,  	2126,  	129,   	
30,    	1.144057136092,     	0.009558955187,     	0.024664636868,     	1.135736659347,     	2127,  	2257,  	131,   	
31,    	1.128280237664,     	0.008854754024,     	0.021827205206,     	1.120632429524,     	2258,  	2406,  	149,   	
32,    	1.113721693718,     	0.007965724151,     	0.020731707609,     	1.106803721322,     	2407,  	2566,  	160,   	
33,    	1.100092731332,     	0.007752134581,     	0.020261549414,     	1.093196586989,     	2567,  	2731,  	165,   	
34,    	1.086431018042,     	0.007846880339,     	0.019068379199,     	1.079500994268,     	2732,  	2901,  	170,   	
35,    	1.072364407232,     	0.008240914729,     	0.018395509541,     	1.06522091064,      	2902,  	3070,  	169,   	
36,    	1.057553764156,     	0.008846713158,     	0.018017820505,     	1.049909593732,     	3071,  	3236,  	166,   	
37,    	1.041929445667,     	0.009230324376,     	0.018294232778,     	1.033953917846,     	3237,  	3399,  	163,   	
38,    	1.026058284793,     	0.009119411305,     	0.017598675091,     	1.018177746105,     	3400,  	3573,  	174,   	
39,    	1.01110053823,      	0.008164478052,     	0.016600113972,     	1.004043153122,     	3574,  	3763,  	190,   	
40,    	0.997733613422,     	0.007429904074,     	0.016178600453,     	0.99130979172,      	3764,  	3958,  	195,   	
41,    	0.984469723145,     	0.007923594627,     	0.015164416166,     	0.977619468052,     	3959,  	4159,  	201,   	
42,    	0.970528249156,     	0.008186643142,     	0.014885586508,     	0.963450607395,     	4160,  	4365,  	206,   	
43,    	0.957153256019,     	0.007316478156,     	0.013544871778,     	0.950498216258,     	4366,  	4578,  	213,   	
44,    	0.944205788648,     	0.007274997862,     	0.015789203158,     	0.937733752692,     	4579,  	4795,  	217,   	
45,    	0.931329411918,     	0.007407656774,     	0.014391593377,     	0.924783099848,     	4796,  	5017,  	222,   	
46,    	0.918036251854,     	0.007792081921,     	0.01465639893,      	0.911298003652,     	5018,  	5243,  	226,   	
47,    	0.904532175372,     	0.00806308095,      	0.014989900671,     	0.897559641661,     	5244,  	5471,  	228,   	
48,    	0.89070267632,      	0.00795790485,      	0.014476034757,     	0.883820679618,     	5472,  	5700,  	229,   	
49,    	0.877190531447,     	0.007710784338,     	0.0140602674,       	0.870490799845,     	5701,  	5932,  	232,   	
50,    	0.863840815844,     	0.007727443819,     	0.014203131418,     	0.857152082376,     	5933,  	6170,  	238,   	
51,    	0.851021147218,     	0.007084158859,     	0.014262064102,     	0.844893215872,     	6171,  	6418,  	248,   	
52,    	0.839189298727,     	0.006602507535,     	0.012260604642,     	0.833477407986,     	6419,  	6672,  	254,   	
53,    	0.827184252035,     	0.007272217167,     	0.012742700972,     	0.820893487108,     	6673,  	6932,  	260,   	
54,    	0.816285551911,     	0.005322286643,     	0.01187249081,      	0.811059662466,     	6933,  	7195,  	263,   	
55,    	0.80542724528,      	0.006505360101,     	0.013722786856,     	0.799689993191,     	7196,  	7447,  	252,   	
56,    	0.793229856538,     	0.007469532106,     	0.012338595989,     	0.786768106224,     	7448,  	7698,  	251,   	
57,    	0.781283670836,     	0.006333458773,     	0.013485474497,     	0.775803689121,     	7699,  	7949,  	251,   	
58,    	0.770648973636,     	0.005963259472,     	0.01253261326,      	0.765488939842,     	7950,  	8206,  	257,   	
59,    	0.759779084032,     	0.006683606119,     	0.012252635009,     	0.753996194762,     	8207,  	8473,  	267,   	
60,    	0.747607006123,     	0.007396515851,     	0.011949762626,     	0.741207746555,     	8474,  	8744,  	271,   	
61,    	0.734884732296,     	0.007337073158,     	0.011943605833,     	0.728536693529,     	8745,  	9020,  	276,   	
62,    	0.723435367144,     	0.005903638867,     	0.011669047028,     	0.718223117182,     	9021,  	9305,  	285,   	
63,    	0.713385071694,     	0.005633995071,     	0.011823664975,     	0.708509309727,     	9306,  	9588,  	283,   	
64,    	0.702695769684,     	0.006717417988,     	0.009653231722,     	0.696818140535,     	9589,  	9864,  	276,   	
65,    	0.691015333833,     	0.006709705023,     	0.010462552506,     	0.685158743348,     	9865,  	10140, 	276,   	
66,    	0.679468807557,     	0.006576455293,     	0.011419968961,     	0.673403002321,     	10141, 	10421, 	281,   	
67,    	0.66695495788,      	0.00746797738,      	0.011866134981,     	0.660492958462,     	10422, 	10705, 	284,   	
68,    	0.654058380287,     	0.007638282233,     	0.01183212162,      	0.647448992558,     	10706, 	10992, 	287,   	
69,    	0.641677395348,     	0.006665401226,     	0.011716590545,     	0.635835917387,     	10993, 	11284, 	292,   	
70,    	0.630044989275,     	0.006692930691,     	0.010085239648,     	0.624246400155,     	11285, 	11582, 	298,   	
71,    	0.619341193362,     	0.005669919659,     	0.011417540645,     	0.613905575038,     	11583, 	11888, 	306,   	
72,    	0.608410483251,     	0.006348401121,     	0.011405090544,     	0.602882699028,     	11889, 	12196, 	308,   	
73,    	0.596854886414,     	0.006972676918,     	0.01057547923,      	0.59082047652,      	12197, 	12502, 	306,   	
74,    	0.584748802053,     	0.007027591754,     	0.01152413471,      	0.578629225897,     	12503, 	12809, 	307,   	
75,    	0.572043649728,     	0.007677660754,     	0.011248752096,     	0.565399312071,     	12810, 	13115, 	306,   	
76,    	0.558760317756,     	0.00766335037,      	0.011326372291,     	0.552128219017,     	13116, 	13425, 	310,   	
77,    	0.54517333128,      	0.008036293147,     	0.011209410865,     	0.538218555877,     	13426, 	13740, 	315,   	
78,    	0.531514887357,     	0.007740868806,     	0.010794373598,     	0.524815468694,     	13741, 	14059, 	319,   	
79,    	0.518256380393,     	0.007583987076,     	0.010426237375,     	0.511692523292,     	14060, 	14383, 	324,   	
80,    	0.505616052488,     	0.007043092568,     	0.009493800375,     	0.499519962986,     	14384, 	14709, 	326,   	
81,    	0.492849079603,     	0.007708646432,     	0.010184308645,     	0.486177152108,     	14710, 	15036, 	327,   	
82,    	0.480114043912,     	0.007027229977,     	0.009692805616,     	0.474031473597,     	15037, 	15365, 	329,   	
83,    	0.467733952955,     	0.00727743896,      	0.010560744344,     	0.461434822203,     	15366, 	15695, 	330,   	
84,    	0.454639703588,     	0.00785060986,      	0.00934172342,      	0.447844606832,     	15696, 	16028, 	333,   	
85,    	0.441722068003,     	0.007079953795,     	0.009283499632,     	0.435374846706,     	16029, 	16364, 	336,   	
86,    	0.428742614586,     	0.007655818974,     	0.008740473366,     	0.422115797355,     	16365, 	16701, 	337,   	
87,    	0.415585907579,     	0.007552652045,     	0.009304956956,     	0.409048234581,     	16702, 	17041, 	340,   	
88,    	0.402365754146,     	0.007724129628,     	0.009425827266,     	0.395679602233,     	17042, 	17384, 	343,   	
89,    	0.389160800728,     	0.00752450152,      	0.00926145795,      	0.382647262813,     	17385, 	17730, 	346,   	
90,    	0.376523447235,     	0.007109585805,     	0.009216845334,     	0.370338869832,     	17731, 	18079, 	349,   	
91,    	0.364816988387,     	0.006393417133,     	0.009388659501,     	0.358894318445,     	18080, 	18427, 	348,   	
92,    	0.352299285819,     	0.007627264718,     	0.009374334331,     	0.345696522188,     	18428, 	18774, 	347,   	
93,    	0.339586714979,     	0.007053807669,     	0.009642198559,     	0.333311523095,     	18775, 	19121, 	347,   	
94,    	0.326944967534,     	0.007356792348,     	0.009392732632,     	0.320451935461,     	19122, 	19471, 	350,   	
95,    	0.314115542781,     	0.007324981815,     	0.009497190424,     	0.30764742348,      	19472, 	19822, 	351,   	
96,    	0.30122498387,      	0.007423722252,     	0.009122866699,     	0.294776688124,     	19823, 	20175, 	353,   	
97,    	0.287980306923,     	0.007848408321,     	0.008861637644,     	0.281185631733,     	20176, 	20530, 	355,   	
98,    	0.274284604614,     	0.007998614312,     	0.008894376424,     	0.267359814838,     	20531, 	20889, 	359,   	
99,    	0.260797286614,     	0.007607580135,     	0.008618091617,     	0.254210828025,     	20890, 	21252, 	363,   	
100,   	0.247785819507,     	0.007428335065,     	0.00857745566,      	0.241222254974,     	21253, 	21618, 	366,   	
101,   	0.234987438119,     	0.007222465223,     	0.009561067661,     	0.228734133616,     	21619, 	21983, 	365,   	
102,   	0.222416046184,     	0.007302842447,     	0.009277694332,     	0.215947159769,     	21984, 	22351, 	368,   	
103,   	0.209918487219,     	0.006985006283,     	0.009169595613,     	0.203717878463,     	22352, 	22722, 	371,   	
104,   	0.197145810594,     	0.007601945873,     	0.008706748805,     	0.190543692796,     	22723, 	23092, 	370,   	
105,   	0.184141628263,     	0.007391770334,     	0.008926417347,     	0.177741410287,     	23093, 	23463, 	371,   	
106,   	0.171143441842,     	0.007654115455,     	0.008846722691,     	0.164516016727,     	23464, 	23836, 	373,   	
107,   	0.157924188053,     	0.007635114019,     	0.009254528534,     	0.151313113743,     	23837, 	24209, 	373,   	
108,   	0.144698937076,     	0.007661330224,     	0.008695935835,     	0.138065067052,     	24210, 	24582, 	373,   	
109,   	0.132166423498,     	0.006877491535,     	0.007150995027,     	0.125983901462,     	24583, 	24956, 	374,   	
110,   	0.120496908242,     	0.006352057242,     	0.007418108056,     	0.1146508742,       	24957, 	25331, 	375,   	
111,   	0.108115411695,     	0.007547057028,     	0.008976654719,     	0.101580210295,     	25332, 	25703, 	372,   	
112,   	0.094952754739,     	0.007661838173,     	0.007696527066,     	0.088318074718,     	25704, 	26078, 	375,   	
113,   	0.081954448809,     	0.007362859764,     	0.008477975678,     	0.075578553138,     	26079, 	26453, 	375,   	
114,   	0.06946283487,      	0.007284807425,     	0.008489004819,     	0.063154440295,     	26454, 	26828, 	375,   	
115,   	0.056747356095,     	0.00741638571,      	0.009143322045,     	0.050324938905,     	26829, 	27202, 	374,   	
116,   	0.044381658447,     	0.00687140377,      	0.009425646693,     	0.038431086823,     	27203, 	27580, 	378,   	
117,   	0.032801027756,     	0.006541498102,     	0.00883566815,      	0.027136079722,     	27581, 	27961, 	381,   	
118,   	0.021667889171,     	0.00647253579,      	0.009141855063,     	0.016062602778,     	27962, 	28341, 	380,   	
119,   	0.010600832583,     	0.006335684538,     	0.007834372208,     	0.005114003881,     	28342, 	28721, 	380,   	
120,   	0.000963956496,     	0.004801306883,     	0.008185647552,     	-0.003194102023,    	28722, 	29179, 	458,   	
